d (m),P (Pa)
0,2410000.0
10.200000000000017,2409823.029547982
20.40000000000005,2409653.4515589713
30.60000000000008,2409478.358273312
40.799999999999805,2409320.358045266
50.99999999999948,2409156.8174011358
61.19999999999916,2408987.7785888826
71.39999999999935,2408813.3099639211
81.59999999999974,2408646.107783902
91.80000000000013,2408473.5287366882
102.00000000000051,2408317.9506229572
112.2000000000009,2408156.9704374149
122.40000000000128,2407990.6283103582
132.60000000000167,2407818.9904612107
142.80000000000206,2407654.5201571612
153.00000000000244,2407484.8057879838
163.20000000000283,2407332.0038899756
173.40000000000322,2407173.9326456338
183.6000000000036,2407010.6301761232
193.800000000004,2406842.1606769008
204.00000000000438,2406668.5877423869
214.20000000000476,2406502.1012715204
224.40000000000515,2406330.5608575824
234.60000000000554,2406175.8265131246
244.80000000000592,2406016.0123174461
255.0000000000063,2405851.1538667455
265.20000000000414,2405681.312782519
275.4000000000017,2405518.4640470985
285.5999999999992,2405350.6811624062
295.79999999999677,2405199.6244222131
305.9999999999943,2405043.6077884971
316.19999999999186,2404882.6650892315
326.3999999999894,2404716.8561710939
336.59999999998695,2404546.2403422659
346.7999999999845,2404382.5398768894
356.99999999998204,2404214.0791974477
367.1999999999796,2404062.2473725211
377.3999999999771,2403905.6292903363
387.59999999997467,2403744.2565489612
397.7999999999722,2403578.1867259564
407.99999999996976,2403418.9433519854
418.1999999999673,2403255.0488534174
428.39999999996485,2403086.5454107174
438.5999999999624,2402934.5784671321
448.79999999995994,2402777.9908186723
458.9999999999575,2402616.8119952674
469.199999999955,2402451.0974726966
479.39999999995257,2402292.1373141566
489.5999999999501,2402128.6860084832
499.79999999994766,2401960.7838661419
509.9999999999452,2401809.3314511157
520.1999999999427,2401653.4163759421
530.3999999999403,2401493.0662685703
540.5999999999378,2401328.3346758876
550.7999999999354,2401170.2880292651
560.9999999999329,2401007.9032820188
571.1999999999305,2400841.219045958
581.399999999928,2400690.9036244773
591.5999999999256,2400536.27705426
601.7999999999231,2400377.365236335
611.9999999999206,2400214.2199712805
622.1999999999182,2400057.6933664926
632.3999999999157,2399896.9757981463
642.5999999999133,2399732.1043650368
652.7999999999108,2399583.527100727
662.9999999999084,2399430.7847398869
673.1999999999059,2399273.9016514332
683.3999999999035,2399112.9280938022
693.599999999901,2398947.913959445
703.7999999998985,2398789.4691999792
713.9999999998961,2398627.0251917043
724.1999999998936,2398480.8078324101
734.3999999998912,2398330.5669725034
744.5999999998887,2398176.3256844929
754.7999999998863,2398018.1329336371
764.9999999998838,2397856.0373664871
775.1999999998814,2397700.4535266664
785.3999999998789,2397541.0081373197
795.5999999998764,2397377.7356174956
805.799999999874,2397230.6119143595
815.9999999998715,2397079.6516925739
826.1999999998691,2396924.876727229
836.3999999998666,2396766.3346835366
846.5999999998642,2396604.0729844617
856.7999999998617,2396448.2855741768
866.9999999998593,2396288.8200551891
877.1999999998568,2396125.7100190618
887.3999999998543,2395978.6838952876
897.5999999998519,2395828.0060290992
907.7999999998494,2395673.6975687607
917.999999999847,2395515.8056049114
928.1999999998445,2395354.3771163942
938.3999999998421,2395199.3967307103
948.5999999998396,2395040.9232847448
958.7999999998372,2394878.9905269593
968.9999999998347,2394733.0948901214
979.1999999998322,2394583.7369845775
989.3999999998298,2394430.9386255527
999.5999999998273,2394274.7477653716
1009.7999999998249,2394115.2125334754
1019.9999999998224,2393962.119554908
1030.1999999998268,2393805.7312372089
1040.3999999998357,2393646.083733181
1050.5999999998446,2393502.4568685335
1060.7999999998535,2393355.5773901618
1070.9999999998624,2393205.4711270831
1081.1999999998714,2393052.1907800701
1091.3999999998803,2392895.7901753844
1101.5999999998892,2392736.3244461734
1111.799999999898,2392583.3684687587
1121.999999999907,2392427.4175018384
1132.199999999916,2392268.520478759
1142.3999999999248,2392125.7065421049
1152.5999999999337,2391979.9916587002
1162.7999999999427,2391831.4266291917
1172.9999999999516,2391680.0967378449
1183.1999999999605,2391526.0999652157
1193.3999999999694,2391369.5543395164
1203.5999999999783,2391210.6135162595
1213.7999999999872,2391058.7811773536
1223.9999999999961,2390905.2076245071
1234.200000000005,2390753.1010351731
1244.400000000014,2390596.8944893973
1254.6000000000229,2390445.309271561
1264.8000000000318,2390291.3463193425
1275.0000000000407,2390135.0164134661
1285.2000000000496,2389976.5820398517
1295.4000000000585,2389825.9242962431
1305.6000000000674,2389668.2703263918
1315.8000000000764,2389509.4099736316
1326.0000000000853,2389359.0063356683
1336.2000000000942,2389217.2555322689
1346.400000000103,2389074.3213438774
1356.600000000112,2388929.6079892213
1366.800000000121,2388782.9486237476
1377.0000000001298,2388634.2277618973
1387.2000000001387,2388483.3562653018
1397.4000000001477,2388330.2646900457
1407.6000000001566,2388174.8987895595
1417.8000000001655,2388017.2162547479
1428.0000000001744,2387866.192980893
1438.2000000001833,2387712.7601480721
1448.4000000001922,2387556.8865449592
1458.6000000002011,2387416.6922813272
1468.80000000021,2387273.9639859363
1479.000000000219,2387128.6713658236
1489.2000000002279,2386980.8126235693
1499.4000000002368,2386830.3886982216
1509.6000000002457,2386677.4028097941
1519.8000000002546,2386521.8601424242
1530.0000000002635,2386372.5956138144
1540.2000000002724,2386220.7551924814
1550.4000000002814,2386066.3363332814
1560.6000000002903,2385909.3500572178
1570.8000000002992,2385767.6918279654
1581.000000000308,2385623.4219724592
1591.200000000317,2385476.5293956981
1601.400000000326,2385327.0289603793
1611.6000000003348,2385174.9361864119
1621.8000000003437,2385020.2671059947
1632.0000000003527,2384871.688451028
1642.2000000003616,2384720.5337896897
1652.4000000003705,2384566.808301541
1662.6000000003794,2384428.2518985667
1672.8000000003883,2384287.0933139618
1683.0000000003972,2384143.3261362738
1693.2000000004061,2383996.9694161103
1703.400000000415,2383848.0424390859
1713.600000000424,2383696.5646269163
1723.8000000004329,2383542.5555138164
1734.0000000004418,2383394.5133465258
1744.2000000004507,2383243.9475726821
1754.4000000004596,2383090.8660330027
1764.6000000004685,2382952.8170949807
1774.8000000004774,2382812.2277227161
1785.0000000004864,2382669.0933579979
1795.2000000004953,2382523.4346664925
1805.4000000005042,2382375.272370541
1815.600000000513,2382224.627166918
1825.800000000522,2382071.5197174037
1836.000000000531,2381924.2852548314
1846.2000000005398,2381774.5995354373
1856.4000000005487,2381622.4712742595
1866.6000000005577,2381485.2674889108
1876.8000000005666,2381345.600088838
1887.0000000005755,2381203.4649975966
1897.2000000005844,2381058.8832461033
1907.4000000005933,2380911.8758468512
1917.6000000006022,2380762.4637182783
1927.8000000006111,2380610.6676806747
1938.00000000062,2380464.6669059312
1948.200000000629,2380316.2947537471
1958.4000000006379,2380165.5600476223
1968.6000000006468,2380012.4834288759
1978.8000000006557,2379874.2256989502
1989.0000000006646,2379733.6072677183
1999.2000000006735,2379590.6238327217
2009.4000000006824,2379445.2961082994
2019.6000000006914,2379297.6447543008
2029.8000000007003,2379147.690304094
2040.0000000007092,2378995.4531629644
2050.2000000007133,2378848.9471336519
2060.4000000006995,2378700.171509238
2070.6000000006857,2378549.1347388276
2080.800000000672,2378412.842219186
2091.000000000658,2378274.2711614035
2101.200000000644,2378133.4168195953
2111.4000000006304,2377990.2994303959
2121.6000000006165,2377844.9391616653
2131.8000000006027,2377697.3560422142
2142.000000000589,2377547.5699612643
2152.200000000575,2377403.4544397891
2162.4000000005612,2377257.1492648199
2172.6000000005474,2377108.6624424485
2182.8000000005336,2376958.0135263447
2193.00000000052,2376822.0307791657
2203.200000000506,2376683.8696129564
2213.400000000492,2376543.5245788237
2223.6000000004783,2376401.0151705346
2233.8000000004645,2376256.3608076475
2244.0000000004507,2376109.5807666038
2254.200000000437,2375960.6941807773
2264.400000000423,2375817.4262518953
2274.600000000409,2375672.0649007373
2284.8000000003954,2375524.6174777397
2295.0000000003815,2375375.1027668938
2305.2000000003677,2375240.1398165519
2315.400000000354,2375103.094010442
2325.60000000034,2374963.9593274314
2335.8000000003262,2374822.7544641262
2346.0000000003124,2374679.4980423599
2356.2000000002986,2374534.2085417849
2366.4000000002848,2374386.9043002194
2376.600000000271,2374237.6035143244
2386.800000000257,2374093.8769868999
2397.0000000002433,2373948.1665494773
2407.2000000002295,2373800.4787352826
2417.4000000002156,2373667.3319440167
2427.600000000202,2373532.1928281416
2437.800000000188,2373395.0543749901
2448.000000000174,2373255.9344766052
2458.2000000001603,2373114.85095364
2468.4000000001465,2372971.8214880875
2478.6000000001327,2372826.8636237723
2488.800000000119,2372679.9947671634
2499.000000000105,2372531.2321881945
2509.200000000091,2372388.0023870943
2519.4000000000774,2372242.8909519333
2529.6000000000636,2372095.9028970092
2539.8000000000497,2371963.3951207059
2550.000000000036,2371828.9970020959
2560.200000000022,2371692.7006288473
2570.4000000000083,2371554.5229719318
2580.5999999999945,2371414.4809359289
2590.7999999999806,2371272.5912924744
2600.999999999967,2371128.8706808239
2611.199999999953,2370983.335608725
2621.399999999939,2370836.002453295
2631.5999999999253,2370694.1628179876
2641.7999999999115,2370550.5366287017
2651.9999999998977,2370405.1288395943
2662.199999999884,2370257.9554952555
2672.39999999987,2370125.199874586
2682.599999999856,2369990.6647211583
2692.7999999998424,2369854.3411457366
2702.9999999998286,2369716.2451141486
2713.1999999998147,2369576.3925323659
2723.399999999801,2369434.7991806911
2733.599999999787,2369291.4807143407
2743.7999999997733,2369146.4526643278
2753.9999999997594,2368999.730438353
2764.1999999997456,2368858.467856165
2774.399999999732,2368715.5219401186
2784.599999999718,2368570.8968009735
2794.799999999704,2368424.6075330134
2804.9999999996903,2368292.6838102662
2815.1999999996765,2368159.0823792135
2825.3999999996627,2368023.7934261607
2835.599999999649,2367886.831976709
2845.799999999635,2367748.2130034715
2855.999999999621,2367607.9513608352
2866.1999999996074,2367466.0617855247
2876.3999999995935,2367322.5588974738
2886.5999999995797,2367177.4572006953
2896.799999999566,2367037.7826124448
2906.999999999552,2366896.5194121217
2917.1999999995382,2366753.6709273714
2927.3999999995244,2366609.2513684253
2937.5999999995106,2366463.2748615951
2947.799999999497,2366331.611303363
2957.999999999483,2366198.377585737
2968.199999999469,2366063.5629314496
2978.3999999994553,2365927.1813819967
2988.5999999994415,2365789.2469334169
2998.7999999994277,2365649.7734716502
3008.999999999414,2365508.7747730692
3019.1999999994,2365366.2645053151
3029.399999999386,2365222.2562281284
3039.5999999993724,2365083.6469644136
3049.7999999993585,2364943.5491685653
3059.9999999993447,2364801.9653477883
3070.199999999331,2364658.9087899909
3080.399999999317,2364514.3927065418
3090.5999999993032,2364384.1475792131
3100.7999999992894,2364252.4300717041
3110.9999999992756,2364119.2285120781
3121.1999999992618,2363984.5560394381
3131.399999999248,2363848.4257547078
3141.599999999234,2363710.8506564372
3151.7999999992203,2363571.843641289
3161.9999999992065,2363431.4175048303
3172.1999999991926,2363289.5849423185
3182.399999999179,2363146.3585494836
3192.599999999165,2363001.7508233045
3202.799999999151,2362862.5209493372
3212.9999999991373,2362721.9183471957
3223.1999999991235,2362579.9445951399
3233.3999999991097,2362436.6119441316
3243.599999999096,2362307.5095920712
3253.799999999082,2362177.0358330896
3263.999999999068,2362045.1780859595
3274.1999999990544,2361911.9485704945
3284.3999999990406,2361777.3594758366
3294.5999999990267,2361641.4228967139
3304.799999999013,2361504.1508338777
3314.999999998999,2361365.5551948398
3325.1999999989853,2361225.6477946062
3335.3999999989715,2361084.4403564073
3345.5999999989576,2360941.9445124227
3355.799999998944,2360798.1718045012
3365.99999999893,2360659.7560089179
3376.199999998916,2360520.0711833937
3386.3999999989023,2360379.1180754192
3396.5999999988885,2360236.9080042397
3406.7999999988747,2360093.452228623
3416.999999998861,2359964.1806665086
3427.199999998847,2359833.6512485612
3437.399999998833,2359701.8504121527
3447.5999999988194,2359568.7893720041
3457.7999999988056,2359434.4793202714
3467.9999999987917,2359298.931363374
3478.199999998778,2359162.1565223732
3488.399999998764,2359024.1657336489
3498.5999999987503,2358884.9698495702
3508.7999999987364,2358744.5796391657
3518.9999999987226,2358603.0057887854
3529.199999998709,2358460.2589027621
3539.399999998695,2358322.8510690783
3549.599999998681,2358184.27726503
3559.7999999986673,2358044.5374230305
3569.9999999986535,2357903.6419478543
3580.1999999986397,2357761.601191394
3590.399999998626,2357633.7118826509
3600.599999998612,2357504.6654913062
3610.799999998598,2357374.4475674443
3620.9999999985844,2357243.0684313178
3631.1999999985705,2357110.5383880292
3641.3999999985567,2356976.8676647502
3651.599999998543,2356842.0664110421
3661.799999998529,2356706.1446994711
3671.9999999985152,2356569.1125262231
3682.1999999985014,2356430.9798117136
3692.3999999984876,2356291.7564011919
3702.599999998474,2356151.4520653426
3712.79999999846,2356010.0765008819
3722.999999998446,2355874.0247693532
3733.1999999984323,2355736.9081222415
3743.3999999984185,2355598.7257037321
3753.5999999984047,2355459.4870331204
3763.799999998391,2355319.2015841762
3773.999999998377,2355177.8787594098
3784.199999998363,2355050.673321032
3794.3999999983494,2354922.4190753507
3804.5999999983355,2354793.1006503892
3814.7999999983217,2354662.7274294253
3824.999999998308,2354531.3087882297
3835.199999998294,2354398.8540327363
3845.3999999982802,2354265.3723992999
3855.5999999982664,2354130.8730552471
3865.7999999982526,2353995.3650994296
3875.9999999982388,2353858.8575627697
3886.199999998225,2353721.3594088037
3896.399999998211,2353582.8795342199
3906.5999999981973,2353443.4267693935
3916.7999999981835,2353303.0098789199
3926.9999999981696,2353167.9063679632
3937.199999998156,2353031.8442543899
3947.399999998142,2352894.8218712495
3957.599999998128,2352756.84782814
3967.7999999981143,2352617.9306966048
3977.9999999981005,2352478.0789847802
3988.1999999980867,2352337.3011377808
3998.399999998073,2352210.6091201552
4008.599999998059,2352082.9799278281
4018.799999998045,2351954.3972606147
4028.9999999980314,2351824.8695560712
4039.1999999980176,2351694.405251876
4049.3999999980038,2351563.0127239507
4059.59999999799,2351430.7002866538
4069.799999997976,2351297.4761932679
4079.9999999979623,2351163.3486364856
4090.1999999979485,2351028.3257488939
4100.399999997935,2350892.415603451
4110.599999997921,2350755.6262139622
4120.799999997907,2350617.9655355518
4130.999999997894,2350479.441465131
4141.19999999788,2350340.0618418632
4151.399999997866,2350199.8344476232
4161.599999997852,2350064.9162936355
4171.799999997838,2349929.1550431587
4181.9999999978245,2349792.5481713074
4192.199999997811,2349655.103328065
4202.399999997797,2349516.8281330992
4212.599999997783,2349377.7301508137
4222.799999997769,2349237.8168906639
4232.999999997755,2349111.9641806404
4243.1999999977415,2348985.2855576412
4253.399999997728,2348857.7638109676
4263.599999997714,2348729.4064525729
4273.7999999977,2348600.2210019324
4283.999999997686,2348470.2149245706
4294.199999997672,2348339.3956321878
4304.399999997659,2348207.7704830859
4314.599999997645,2348075.3467825884
4324.799999997631,2347942.1317834617
4334.999999997617,2347808.1326863295
4345.199999997603,2347673.3566400856
4355.3999999975895,2347537.8107423019
4365.599999997576,2347401.5020396356
4375.799999997562,2347264.4375282326
4385.999999997548,2347126.6241541267
4396.199999997534,2346988.0688136369
4406.39999999752,2346848.77835376
4416.5999999975065,2346714.7962561375
4426.799999997493,2346580.0829020785
4436.999999997479,2346444.6349513335
4447.199999997465,2346308.4591401378
4457.399999997451,2346171.5621816833
4467.599999997437,2346033.9507415276
4477.799999997424,2345895.6314378493
4487.99999999741,2345756.6108418223
4498.199999997396,2345631.6305268444
4508.399999997382,2345505.938711314
4518.599999997368,2345379.5172712011
4528.7999999973545,2345252.3727886709
4538.999999997341,2345124.5118607068
4549.199999997327,2344995.9410380223
4559.399999997313,2344866.666825125
4569.599999997299,2344736.6956806784
4579.799999997285,2344606.0340178572
4589.9999999972715,2344474.6882047048
4600.199999997258,2344342.6645644847
4610.399999997244,2344209.9693760294
4620.59999999723,2344076.60887409
4630.799999997216,2343942.5892496766
4640.999999997202,2343807.9166504033
4651.199999997189,2343672.5971808257
4661.399999997175,2343536.6369027761
4671.599999997161,2343400.0418356978
4681.799999997147,2343262.8179569761
4691.999999997133,2343124.9712022669
4702.199999997119,2342986.5074658208
4712.399999997106,2342853.3578195428
4722.599999997092,2342719.5942167174
4732.799999997078,2342585.2124840263
4742.999999997064,2342450.218425456
4753.19999999705,2342314.6178291813
4763.3999999970365,2342178.4164433279
4773.599999997023,2342041.6199761634
4783.799999997009,2341904.234096407
4793.999999996995,2341766.2644335344
4804.199999996981,2341627.716578084
4814.399999996967,2341503.1922263755
4824.599999996954,2341378.079951141
4834.79999999694,2341252.3606788432
4844.999999996926,2341126.0400178693
4855.199999996912,2340999.1235988261
4865.399999996898,2340871.6170138689
4875.599999996884,2340743.5258167004
4885.799999996871,2340614.8555228626
4895.999999996857,2340485.6116100322
4906.199999996843,2340355.7995183067
4916.399999996829,2340225.4246504949
4926.599999996815,2340094.492372402
4936.7999999968015,2339963.0080131111
4946.999999996788,2339830.9768652655
4957.199999996774,2339698.4041853468
4967.39999999676,2339565.2951939506
4977.599999996746,2339431.6550760618
4987.799999996732,2339297.4889813247
4997.9999999967185,2339162.8020243146
5008.199999996705,2339027.599284804
5018.399999996691,2338891.8858080278
5028.599999996677,2338755.6666049473
5038.799999996663,2338618.9466525107
5048.999999996649,2338481.7308939127
5059.199999996636,2338344.02423885
5069.399999996622,2338211.6464571292
5079.599999996608,2338078.779925684
5089.799999996594,2337945.4196068421
5099.99999999658,2337811.5703398003
5110.1999999965665,2337677.2369551794
5120.399999996553,2337542.4242511326
5130.599999996539,2337407.1369934706
5140.799999996525,2337271.379915907
5150.999999996511,2337135.1577203004
5161.199999996497,2336998.4750768933
5171.3999999964835,2336861.3366245511
5181.59999999647,2336723.7469709991
5191.799999996456,2336600.1758927843
5201.999999996442,2336476.1443722388
5212.199999996428,2336351.6323804646
5222.399999996414,2336226.6445471845
5232.599999996401,2336101.1855315729
5242.799999996387,2335975.2599619357
5252.999999996373,2335848.8724356401
5263.199999996359,2335722.0275193462
5273.399999996345,2335594.7297492344
5283.5999999963315,2335466.9836312323
5293.799999996318,2335338.7936412389
5303.999999996304,2335210.1642253469
5314.19999999629,2335081.0998000638
5324.399999996276,2334951.6047525308
5334.599999996262,2334821.6834407412
5344.7999999962485,2334691.3401937541
5354.999999996235,2334560.5793119087
5365.199999996221,2334429.4050670383
5375.399999996207,2334297.8217026768
5385.599999996193,2334165.8334342707
5395.799999996179,2334033.4444493847
5405.999999996166,2333900.6589079057
5416.199999996152,2333767.4809422521
5426.399999996138,2333633.9146339991
5436.599999996124,2333499.9640847561
5446.79999999611,2333365.6333458116
5456.999999996096,2333230.9264416872
5467.199999996083,2333095.8473704248
